93.4461248871
129.4952282540
85.1436322463
101.1848794582
132.8197681575
68.7423433971
91.2669626166
65.1376691733
62.4818549768
61.1514655534
82.3903383802
86.5885216737
105.6675558935
130.6062922763
66.1443821038
64.6969703686
98.5882003276
67.3564639545
79.1875330925
45.7227702002
125.2171108639
100.6033605285
125.3543076244
90.2425066384
115.7624901418
135.2882004299
53.8679935488
83.5428575978
92.8585195132
88.6466793145
57.5262997583
88.8217205799
110.0858492291
67.3562003103
145.2852225397
86.4113396829
90.4848662087
73.0978996408
119.2014365926
126.0608930682
68.9636660828
79.5691568151
94.1523863062
111.0635595458
103.1978469366
130.2400445079
85.2463024349
104.7859791563
96.9311785652
82.1135132637
87.9214110132
96.1483583534
102.3605750782
140.2768360833
113.1446073668
84.5618105939
109.2625556394
84.7723143575
75.4510864596
87.5506122527
80.9210321260
80.9750160856
62.6675722721
82.1688437568
73.9412129805
127.8058312758
81.9265268105
118.1207969279
84.6147605262
101.9968595276
92.0028828051
71.6478421267
78.8054260933
112.8396285656
94.2249263545
104.5501556415
59.7432249539
73.9914382579
90.2714965583
93.0446546520
74.1900250254
81.8640077118
101.0917430372
75.3691602494
82.2984624444
93.9262829576
76.9456921390
148.2786284430
70.4978965037
78.7449655072
77.0933882126
113.8726924266
81.7237280659
89.3643487161
82.2307938594
91.7198203153
117.6591512586
84.7561763515
60.5861917035
79.4618772590
103.8530571059
73.2117116003
68.4030801687
118.8634083897
71.0680341052
58.8285235967
58.8979495053
94.5016969621
86.1896106179
139.3341568572
89.6412677714
89.6041449006
103.1021672338
78.4051357593
88.9809107050
77.9418663044
80.4199500851
64.8667723734
125.7618191290
148.1269943239
69.7921023643
168.2076615078
70.8739327378
149.0278487181
83.2937406274
82.2622569914
98.4251493700
90.6510127393
48.5379376495
82.7670749900
52.5146058981
72.2275057447
83.8655922859
94.5155264833
71.8867336746
115.9621791644
111.4304757738
75.8584806807
81.9797182147
89.5676532409
110.9550099249
104.6194377876
79.8399309379
145.1139297384
127.9004111196
68.1013761417
83.9088947870
62.7454306331
85.0311018756
106.2905934399
60.6082120540
98.6443806566
97.7105755545
102.4300124623
76.1847861467
76.4987913858
69.0862855113
85.6075810499
104.0255345680
58.5147871522
75.8454506501
45.9042178589
65.6711912720
122.0606015853
65.0452080992
80.8691968639
148.2321864616
75.7577904617
89.9723346521
70.8447344596
90.4322576125
79.3784817842
83.3245499999
115.2543201158
68.5557929283
107.9045552769
78.6371022264
89.8121525517
107.5969861050
117.7269530175
88.1502111728
65.0591527652
96.8189357134
119.5065581285
98.9939680528
103.5840022123
78.2069864393
70.7465408573
72.9683921185
96.4675376290
113.4512401647
116.6615459740
77.0808153104
91.7770548784
74.1382087823
108.8779328736
71.8940697103
53.3777169864
91.9944753974
104.4946057160
115.4456265919
94.9033791276
77.8722866250
111.6493868595
124.2731032963
107.5551333526
67.1405399910
99.9460324219
92.8466506630
92.0741122514
77.0016674396
115.9017665360
81.9812383721
87.5077315386
93.5149277765
92.3087375522
55.1442879983
107.5310605217
58.8626846448
68.5959066431
77.8218869192
66.6817551229
77.8752041201
78.5406639642
124.8489056817
81.4244771814
75.8635579967
92.3837511543
75.2689076309
73.8766332431
96.8989681041
63.3071590656
104.3201619923
61.7692087458
111.7576016965
95.9133526146
86.6973004037
123.6379537106
79.1452324598
85.1043483727
72.8397445375
79.3133986989
98.2140867176
110.8901585823
51.9434863564
90.5141244988
58.2406952820
65.3637801063
84.7177080288
93.8138922593
86.4418669874
86.5474478524
92.1948118758
63.9750348535
77.1755672040
145.3646282740
71.8548840625
79.4483124841
98.1580601385
116.7041764344
99.2302276428
89.4125188985
94.6767636861
137.3163318343
86.4926946114
72.5899087123
84.5637541175
88.5147666903
76.1013251349
87.2102985628
78.8149050175
80.2232411473
137.1602730373
84.9401422593
80.3337389523
101.0267014849
115.0565360285
103.2835309734
88.8013714973
83.4906183687
112.9146036879
79.1946762814
70.2370895743
77.4309384671
44.0466950217
108.2788033606
68.7791556370
80.2289882140
61.5184070578
64.9381046288
126.3980878304
57.4585533348
86.7209617323
51.8171154908
78.0906986755
94.6534413988
90.7821980506
103.2400906910
75.1233980114
138.1605470631
86.4714624135
60.5883013949
114.7059314638
60.3647881228
81.7692394634
84.7276974566
111.9468662133
78.7140994521
88.1111918952
65.9728189273
75.6379851677
171.1396454201
103.5837056989
68.8138860894
77.8396610141
134.7264977939
104.4924054425
132.7316505425
69.2723873602
87.9638107964
95.3628159495
130.1083789434
83.7380514071
117.2586553409
93.5325966812
86.1846302344
104.3418909781
75.8520512692
74.5666678709
86.2122829815
103.8441073734
109.9776409290
110.8636913009
82.5792187138
72.3038383930
93.9248644058
81.6709048148
118.3331020469
92.7603196400
96.0005823995
96.9364198323
86.7460358753
53.7437812414
97.8575466033
70.0552835642
55.3147988056
106.2347027232
125.3136983554
70.7477443656
87.2034413384
114.9543116444
99.9448256253
174.1206990530
59.7337975464
74.4535024618
82.8694780234
68.8690027459
98.2070408737
71.4727613948
73.2976332735
81.8215335990
112.9368085911
70.9721738398
92.5987519966
74.7030936653
68.6594497103
76.6615710309
79.0347828600
65.4090725025
96.0292378212
81.6172646204
86.9395039580
83.1725285936
70.2951956227
96.2591398386
85.5460106689
81.7331524538
103.4865791036
96.8979400233
105.3261150623
156.4461796749
61.7259248736
77.6908727228
85.2173550806
82.7566866401
111.2195853650
147.0990624533
75.9552297270
91.7334101104
80.1442388094
72.9713742256
86.6241426197
123.4568592395
88.5108759226
58.2790984867
67.8139108209
82.9387339558
50.6256682309
82.8868623524
105.2755812431
136.9193446510
56.3377450367
74.7657263963
119.7109344577
78.6259258705
72.5712501922
93.2382877919
136.4744389875
77.1634276596
147.7047804728
103.7125351228
68.8172431625
73.4088320462
62.1872520057
156.0002518677
62.8770884534
84.6370165699
144.4513881476
98.4439213478
81.6116986082
100.2557841072
72.2342123413
79.6312017439
106.6982118787
75.3309535151
91.4332145767
99.0688764284
94.2762985269
135.7471300256
109.3367506343
63.2630717382
88.8846030712
77.5991696004
76.4757778420
88.2461137162
87.2298503853
78.3803983211
85.4858615565
77.0696286725
123.4153108184
57.9810181330
91.0181018546
168.3177914828
115.6845079472
90.3482511614
88.4731930166
76.6619486726
53.7595579342
94.0031537673
136.6411863572
75.5901613652
97.2443661812
66.9392189226
63.0805321237
72.9146086770
82.9381103801
93.9173804787
77.5549668531
90.7235943474
78.8765537424
104.4429689852
84.5471118784
58.4849448307
114.0234634638
63.7835802279
74.6512932096
71.2600860805
73.9923851201
91.5872345769
116.5909041099
93.9537227422
74.4013259535
73.6708134181
66.7058748630
82.5078653191
127.5740786349
65.8552116712
87.2326666411
95.8993332365
143.0550282977
80.2242530183
80.6248708567
120.8685296294
104.2493340732
104.0357163311
147.0714293468
75.6350693777
81.9988456609
70.5365555993
110.4750005743
78.6837331649
146.0224016025
66.3203217226
76.4459025487
105.3500433622
72.8893342852
69.0289565432
75.0209091553
67.8546785116
96.5949841563
63.6726138177
96.1836754695
144.9979035982
68.2478683071
82.3602411641
112.3938213109
79.9086165825
77.4519557470
123.6335806835
86.2479906453
89.5267096213
94.7804954369
78.3517373284
71.9492268503
79.5129714019
55.5284526992
98.2681302592
97.1603173828
82.0018873908
108.2119525528
109.1807965587
76.0942427534
93.0419901151
122.6303691530
113.6011807345
120.0771070017
77.6110131746
119.2026160245
77.9753103575
77.4273498737
118.6644826863
89.8247095488
85.6543229464
81.0914671122
68.7396891265
120.2819147516
81.2729204463
96.3699965882
133.8186129114
153.0175955562
112.4388040974
75.3970685610
77.1221000638
74.3423551635
62.6936892039
88.7146499567
83.6215373049
121.8309165599
113.3786412500
84.5466769318
82.2641005488
106.7938821551
91.5294952390
79.6416363769
88.4083748570
87.9030586789
71.3875334970
111.0198629360
79.7870836633
118.9878116544
57.9363421402
103.0447173197
65.4774514284
122.3502213043
130.4997124807
99.4198307114
76.0270077594
104.7302636474
94.2191256827
81.6726198527
83.3731257130
118.1056371993
85.3900763012
56.0011711223
98.0653676820
62.0283749475
86.3466939284
106.4213651257
68.5328253867
133.7282295476
78.9642890287
62.9481731633
56.0180423716
75.1025990011
107.2023815123
89.4944423380
89.6266797088
74.5634728162
89.5488621757
83.9418675704
80.8216912789
70.6048038057
59.4225618071
67.2377179405
89.5468888957
104.9718535716
128.4134398913
73.0838507973
91.9169993429
62.6716252133
132.8092754078
125.7153765354
97.2515497664
89.7307037369
61.9932158883
103.7090561651
52.0705681146
62.2233955123
120.8624056945
80.1005547913
85.4485587728
67.2574485183
78.5207001146
79.6580453083
77.6845684514
70.7704387873
89.5025780597
69.7898446658
124.7078705650
108.2544751678
96.5189913188
58.5518157251
107.5476719131
111.3912359272
70.5972640080
69.6269538388
85.8247406551
91.9039474319
102.9055912323
93.3647874282
73.7283023087
88.8382882180
88.2850316974
89.1519146105
82.3246065691
86.5699078911
85.5862726423
63.6199827032
82.3834191337
89.0994313965
105.8788931322
85.5038826575
71.7258525009
78.4447657393
74.9679356653
69.2969505754
122.9940431675
96.1061188045
65.9723468230
90.4378250799
66.0380094930
110.5062108941
117.8454683070
82.0112026061
78.9834820559
92.9327096642
121.3760781849
76.9548013623
146.5141981924
85.8026183974
88.2250311858
45.5222568696
78.3371482957
78.4512146967
82.2968299116
89.3826149279
70.6520965951
83.0296486838
77.5673806562
65.3872712621
89.6624070003
73.3603073289
49.9646073181
84.4467414657
79.3573976902
117.4401703497
80.6427314520
68.2255690298
60.2069437647
88.6935556970
110.8734037236
113.4655765508
115.1667635529
89.9245211795
75.7115655110
114.3828436705
105.8272679548
104.8256487852
63.9815764148
57.3737399505
105.2263926802
97.3356331197
115.6061754372
142.6226760638
68.7143474274
95.5607197885
103.0254644116
64.1184975540
103.8899788076
96.2536379438
82.4586670043
107.6814000860
71.3806801340
90.4821953168
53.1860351249
55.3529196340
78.9363391491
86.3084668662
62.0180198788
85.7883472962
52.7094642649
86.9782603716
100.2686649834
116.0356948817
122.8903507907
65.2050942346
65.8782984906
76.0908459279
105.6190929636
122.8192434698
86.9086459069
77.2912774648
64.4206805475
75.1795637861
160.5466800930
168.6145812884
56.9450819723
77.5055475509
89.6581106397
86.8579396726
92.2058086542
93.9787488594
81.7853461460
106.2184609494
75.1568485562
86.5863152278
97.7796945165
79.0371595278
73.4142776868
90.1365115855
78.0711212484
51.7029864578
99.4762681774
120.7851902445
47.8303896856
81.8476878831
86.3922504866
76.2773113171
88.5945204707
145.0547273288
108.0994724111
87.8603981965
84.2163495408
67.3134102281
89.4827045617
87.7232713797
71.3951565899
82.9123010045
119.2513754565
88.4637143611
73.6549255482
86.5342380561
82.4070515106
142.0077372534
91.9089962164
77.0481635425
106.8024207415
103.8974494358
76.7929383356
71.6367430614
96.5429919673
84.3097657828
122.9081166670
70.7932825862
70.2833742082
57.1745950798
78.6521939952
61.4904962213
111.1215816774
77.0138613972
89.3664390785
63.7974652684
115.6626942413
120.6237963549
81.7889803099
88.3665453283
129.5624982817
114.5487832197
88.7445848912
83.4092385591
87.9587197893
72.4352152655
86.8148481163
88.7100744762
90.0201185073
103.2840987642
138.2903796409
66.3293870081
83.5782714160
76.2087982453
49.4116904151
98.4866255871
108.1733497594
84.3215861461
157.0449575687
109.4670946018
82.1726070235
118.0077874863
58.9040214731
60.5997600112
122.3049131561
64.0418004782
89.4693027435
74.1205698334
66.8527083426
142.2679889032
92.2055538115
77.7543489724
124.5193238602
66.1912913122
87.1552296315
110.1157158970
71.4618891674
69.2762983467
80.4214248317
90.9976549657
43.1922012734
85.2357539539
126.6766453011
101.8513338804
102.5196642543
94.9604387139
122.9712308378
92.4832133268
59.4962284383
95.8979428668
109.0410788075
64.2783758577
53.0073210502
88.3365703038
70.6111490068
94.8447907256
91.0187778905
66.5702823379
82.3498568039
114.6962376758
79.7472511212
88.2596217441
66.6519733928
105.1736352741
71.8212051416
120.3140094056
128.1197594338
80.6729982935
90.4474621332
56.9278437637
95.6188169401
128.0382853433
111.4810405962
91.9733882035
83.0922784367
94.4334264786
76.1225458048
103.7721684205
75.8111925877
86.7492536455
89.2634336333
95.9108985729
59.1627738387
110.7376884569
96.9254155096
136.9459737574
88.2687448932
144.0880151742
83.0196243274
126.6516204799
60.0576256202
86.3743091788
79.5312208004
58.9463804917
75.8706315566
129.8038675185
92.3081252276
55.1562718329
90.5670721295
102.0131029743
67.6378385682
73.3551504793
94.0392456274
124.8834625660
122.0228937635
107.1020155494
116.8303139622
83.0781565107
128.1011815480
83.4277914925
79.4127295481
104.4556740185
73.1381515502
62.5461500983
69.6176445699
108.3447775498
134.6775937420
99.4719517271
74.0479497624
66.5649352438
78.1783527478
97.9025004272
88.8833611990
103.7938390312
82.1567682642
87.2384088455
73.1196484460
125.0608111211
135.7485703838
83.7999106169
101.3904210157
74.2561746118
124.0973039972
144.4446650246
92.2299432174
93.6468813000
130.4468477488
110.2195094025
74.3327226384
96.4817012901
53.8197720122
93.1739057918
84.7424863819
65.2171985729
108.0746509068
76.1978575037
71.7425242504
124.7598833492
72.3142757093
104.1680369583
70.8386678994
91.1954117345
88.6370305575
88.9282491170
106.5316364879
74.8343986635
121.7085773662
107.5623722897
52.5898230312
158.8036369941
58.4387880811
46.2920384669
85.7818024935
93.5333498779
84.4403007912
110.0744732116
85.2713622408
61.9802951442
101.3057305266
88.0392297146
74.9544847701
80.3053557777
58.2500024175
60.8304995889
100.5421735522
91.3241547833
131.3996413272
78.5640578731
90.6030400356
64.4543689953
115.8001556547
58.2219320284
73.3086789065
134.0463725728
87.9026146096
92.2289955581
109.7457779026
94.2984114202
72.8777540816
67.9389373498
115.6049599694
91.1251762887
67.2920022701
85.1490232907
113.4434033611
57.3239765721
127.0175028571
121.5707466084
130.6806757949
80.1310786180
111.5809834389
111.4386433839
149.0356181561
96.5502690212
87.2928931755
65.8350312858
90.7014860749
83.4938778501
92.5016800083
97.8215235848
105.9418773313
76.8902317620
98.8744452246
84.1217180699
